,frame,x,x (cm),time (s)
0,0,0.2067241668701172,59.837390437915005,0.0
2,2,0.2075840272009372,59.837390437915005,0.06666666666666667
3,3,0.2108699381351471,59.837390437915005,0.1
4,4,0.2159062996506691,59.837390437915005,0.13333333333333333
5,5,0.2203898876905441,60.809612775382526,0.16666666666666666
6,6,0.2242899946868419,61.99812781767177,0.2
7,7,0.2303397767245769,63.38327333851663,0.23333333333333334
8,8,0.2378021962940693,64.94101625565378,0.26666666666666666
9,9,0.2421322353184223,66.48783521314415,0.3
10,10,0.2434220239520073,67.84894791675455,0.3333333333333333
11,11,0.2439747862517833,68.81898535628117,0.36666666666666664
12,12,0.2439133711159229,69.25375354363462,0.4
13,13,0.2435755766928196,69.35643738616434,0.43333333333333335
15,15,0.243729118257761,69.37828504042908,0.5
16,16,0.2438519522547722,69.36954624375205,0.5333333333333333
17,17,0.2440362051129341,69.37828504042908,0.5666666666666667
18,18,0.2441590428352356,69.41979465593103,0.6
19,19,0.2446196936070919,69.48315298581315,0.6333333333333333
20,20,0.2455409877002239,69.60331627689897,0.6666666666666666
21,21,0.2461244687438011,69.75188191607221,0.7
22,22,0.2460323385894298,69.88515406474573,0.7333333333333333
23,23,0.2457252442836761,69.96380641518529,0.7666666666666667
24,24,0.2457252405583858,69.97691474271525,0.8
25,25,0.2456638179719448,69.94414259874603,0.8333333333333334
26,26,0.2448960840702057,69.86330588042328,0.8666666666666667
27,27,0.2434527389705181,69.70163270880666,0.9
28,28,0.241579458117485,69.40668871366081,0.9333333333333333
29,29,0.2386313453316688,68.90637650339777,0.9666666666666667
30,30,0.2345469780266285,68.17010856696032,1.0
31,31,0.2311689332127571,67.29620001111188,1.0333333333333334
32,32,0.2290192693471908,66.40262869893961,1.0666666666666667
33,33,0.2277601733803749,65.62921935270886,1.1
34,34,0.2273916527628898,65.12016702062448,1.1333333333333333
35,35,0.2272073961794376,64.83833082295087,1.1666666666666667
36,36,0.2269310168921947,64.68976597886422,1.2
37,37,0.2266546376049518,64.61111468854008,1.2333333333333334
38,38,0.2263475432991981,64.53683345912664,1.2666666666666666
39,39,0.2255797982215881,64.42104102403808,1.3
41,41,0.2233994230628013,64.16979233742167,1.3666666666666667
42,42,0.2232151664793491,63.925097549541384,1.4
43,43,0.2235222607851028,63.724098070190536,1.4333333333333333
44,44,0.2242285832762718,63.627968391425775,1.4666666666666666
45,45,0.2252419963479042,63.759054847071816,1.5
46,46,0.2265010811388492,63.99282514524758,1.5333333333333334
47,47,0.2281286865472793,64.32054075430493,1.5666666666666667
48,48,0.2305547408759594,64.77060349227355,1.6
49,49,0.23387136682868,65.38452403477085,1.6333333333333333
50,50,0.2374336719512939,66.16230291185454,1.6666666666666667
51,51,0.2403203696012497,67.02965756896688,1.7
52,52,0.2419479750096798,67.84020805996208,1.7333333333333334
53,53,0.2426235862076282,68.46286845925185,1.7666666666666666
54,54,0.2432991936802864,68.8801601133667,1.8
55,55,0.2439748011529445,69.14014786168899,1.8333333333333333
56,56,0.2440976426005363,69.29308197159973,1.8666666666666667
57,57,0.2442511916160583,69.40887493674603,1.9
58,58,0.2448039576411247,69.51592857515756,1.9333333333333333
59,59,0.2450496293604374,69.59239523256964,1.9666666666666666
60,60,0.2447425350546836,69.63827490898225,2.0
61,61,0.2438519597053527,69.60987229586597,2.033333333333333
62,62,0.2422857768833637,69.43072100083756,2.066666666666667
63,63,0.240166824311018,69.08334290048526,2.1
64,64,0.2362360097467899,68.47816194975158,2.1333333333333333
65,65,0.2303704917430877,67.51904793981403,2.1666666666666665
66,66,0.2249041944742202,66.28246752808468,2.2
67,67,0.2205434441566467,64.88639857765074,2.2333333333333334
68,68,0.2169811427593231,63.51654681233446,2.2666666666666666
69,69,0.2144015431404113,62.38046561022281,2.3
70,70,0.2128967754542827,61.52622007572704,2.3333333333333335
71,71,0.2127432264387607,60.97128806723005,2.3666666666666667
72,72,0.2138487659394741,60.74844093361448,2.4
73,73,0.2158448845148086,60.851124776144225,2.433333333333333
74,74,0.2187930010259151,61.27060079814224,2.466666666666667
75,75,0.2223553024232387,61.9544340993155,2.5
76,76,0.2257640585303306,62.802125470046285,2.533333333333333
77,77,0.2291728146374225,63.75031631542364,2.566666666666667
78,78,0.233165044337511,64.7727886552433,2.6
79,79,0.2373108267784118,65.83677167068036,2.6333333333333333
80,80,0.2406274564564228,66.89420052235245,2.6666666666666665
81,81,0.2431456372141838,67.88827104414241,2.7
82,82,0.2449267916381359,68.72503872025528,2.7333333333333334
83,83,0.2454488538205623,69.30400354598676,2.7666666666666666
84,84,0.2455102689564228,69.6513821763968,2.8
85,85,0.2456638142466545,69.83053320639632,2.8333333333333335
86,86,0.244988203048706,69.83490220719153,2.8666666666666667
87,87,0.2435448579490184,69.6994459556637,2.9
88,88,0.241825133562088,69.43727383945824,2.933333333333333
89,89,0.239675473421812,69.01124444878181,2.966666666666667
90,90,0.2370958738029003,68.44975933663528,3.0
91,91,0.2338406592607498,67.75937213672591,3.033333333333333
92,92,0.2299098372459411,66.91168050096626,3.066666666666667
93,93,0.226071149110794,65.9438261041785,3.1
94,94,0.2228159420192241,64.92790686800836,3.1333333333333333
95,95,0.2206355668604374,63.988455084336906,3.1666666666666665
96,96,0.2202363461256027,63.30025251733957,3.2
97,97,0.2209733761847019,62.93758092648754,3.2333333333333334
98,98,0.221986785531044,62.87859212745838,3.2666666666666666
100,100,0.2253955416381359,63.217231696162514,3.3333333333333335
101,101,0.2270538508892059,63.702250415925825,3.3666666666666667
102,102,0.228589329868555,64.24407330180625,3.4
103,103,0.2303704842925071,64.84051598592065,3.433333333333333
104,104,0.2324894331395626,65.34519772703663,3.466666666666667
105,105,0.2349769026041031,65.90886853221065,3.5
106,106,0.2374643795192241,66.54026746314858,3.533333333333333
107,107,0.2394604980945587,67.18695961955738,3.566666666666667
108,108,0.2409959733486175,67.79214163040652,3.6
109,109,0.2422550655901432,68.3099330241968,3.6333333333333333
110,110,0.2430535107851028,68.7075613919301,3.6666666666666665
111,111,0.2433606050908565,68.98502726366416,3.7
112,112,0.2436062842607498,69.17073298748642,3.7333333333333334
113,113,0.2438826709985733,69.2865259526327,3.7666666666666666
114,114,0.2440669275820255,69.35862360924956,3.8
115,115,0.2441283464431762,69.41324314245465,3.8333333333333335
116,116,0.2442818917334079,69.46130798183702,3.8666666666666667
117,117,0.2444354370236396,69.50063349448466,3.9
118,118,0.2445582784712314,69.5355897413082,3.933333333333333
119,119,0.2449575066566467,69.59457880536624,3.966666666666667
120,120,0.2455102764070034,69.68196995248283,4.0
121,121,0.24609375,69.79994755054116,4.033333333333333
122,122,0.2464622594416141,69.93540274195355,4.066666666666666
123,123,0.2464008443057537,70.03808631945444,4.1
124,124,0.2462473027408123,70.09052068968975,4.133333333333334
125,125,0.246216595172882,70.09926028145337,4.166666666666667
128,128,0.2463087253272533,70.08833738192203,4.266666666666667
129,129,0.2464315630495548,70.09052280992066,4.3
130,130,0.2463394291698932,70.09707697368563,4.333333333333333
131,131,0.246001623570919,70.08178321815703,4.366666666666666
132,132,0.2456638216972351,70.03590274665784,4.4
133,133,0.2456331141293048,69.97909858054071,4.433333333333334
134,134,0.2456945367157459,69.9332189041281,4.466666666666667
136,136,0.24529530107975,69.88296890177595,4.533333333333333
137,137,0.2454181350767612,69.8654899832776,4.566666666666666
138,138,0.2456945218145847,69.86985871904395,4.6
139,139,0.2456331066787243,69.86548839310441,4.633333333333334
141,141,0.2453874349594116,69.87204308692714,4.7
142,142,0.2453874312341213,69.86985871904396,4.733333333333333
143,143,0.2454795613884925,69.85456575860195,4.766666666666667
144,144,0.2456024065613746,69.85238165574762,4.8
145,145,0.2458173744380474,69.88296890177595,4.833333333333333
147,147,0.2459094896912574,69.92010978151154,4.9
148,148,0.2458173632621765,69.94414206868831,4.933333333333334
149,149,0.245909497141838,69.96598945792417,4.966666666666667
151,151,0.2453874386847019,69.93540247692468,5.033333333333333
152,152,0.2452338896691799,69.88733816760003,5.066666666666666
153,153,0.2448346614837646,69.81742567395293,5.1
154,154,0.2440362088382244,69.68415405533715,5.133333333333334
155,155,0.2429920881986618,69.5137412919569,5.166666666666667
156,156,0.2414566166698932,69.24501421689986,5.2
157,157,0.2393683716654777,68.85612517590131,5.233333333333333
158,158,0.2364202588796615,68.31430255504972,5.266666666666667
159,159,0.2320902124047279,67.5387088409358,5.3
160,160,0.2275144942104816,66.54682242200015,5.333333333333333
161,161,0.2234301343560218,65.4129261178294,5.366666666666666
162,162,0.2191922217607498,64.18726940071798,5.4
163,163,0.2148314714431762,62.959428315723386,5.433333333333334
164,164,0.2106856852769851,61.76217394669939,5.466666666666667
165,165,0.2065091840922832,60.55836435379497,5.5
166,166,0.2015035338699817,59.29993549271432,5.533333333333333
167,167,0.1958529911935329,57.94974674875073,5.566666666666666
168,168,0.1910930201411247,56.55586296128655,5.6
169,169,0.1881756149232387,55.25155521887987,5.633333333333334
170,170,0.1863330416381359,54.17227871294308,5.666666666666667
171,171,0.184490468353033,53.363913119888785,5.7
172,172,0.1826786063611507,52.76528527280463,5.733333333333333
173,173,0.1812045499682426,52.26934179830795,5.766666666666667
174,174,0.18016042932868,51.83020275495725,5.8
175,175,0.1795462444424629,51.478455123752006,5.833333333333333
176,176,0.1790241822600364,51.21846790548744,5.866666666666666
177,177,0.1781028918921947,50.9978061998705,5.9
178,178,0.1771508976817131,50.78369865801855,5.933333333333334
179,179,0.1767209656536579,50.58269944369657,5.966666666666667
180,180,0.1765674129128456,50.40791714946339,6.0
181,181,0.1768130883574485,50.31615647149384,6.033333333333333
182,182,0.1777036674320697,50.35548224917033,6.066666666666666
183,183,0.1803753934800624,50.61546973246375,6.1
184,184,0.1895882487297058,51.54181292357639,6.133333333333334
185,185,0.2103785946965217,53.92976855797484,6.166666666666667
187,187,0.2608957216143608,59.84831280738861,6.233333333333333
188,188,0.2784001380205154,66.82210127556242,6.266666666666667
189,189,0.2897626608610153,73.94882385364697,6.3
190,190,0.2950446978211403,79.97223657850253,6.333333333333333
191,191,0.2963344976305961,82.49346250637245,6.366666666666666
192,192,0.2955360487103462,83.71256505971888,6.4
193,193,0.2946761846542358,84.06212858806981,6.433333333333334
194,194,0.2944919317960739,84.02280307542217,6.466666666666667
195,195,0.2943076714873314,83.87860829224618,6.5
196,196,0.2943690866231918,83.79558694101141,6.533333333333333
197,197,0.2944919243454933,83.78247808342371,6.566666666666666
198,198,0.2938163131475448,83.73441244895474,6.6
199,199,0.2930178642272949,83.64265150595634,6.633333333333334
200,200,0.2924650982022285,83.50719578448623,6.666666666666667
201,201,0.2917280718684196,83.3105666310749,6.7
202,202,0.2912981361150741,83.13141560107536,6.733333333333333
203,203,0.2914209738373756,83.01780779889883,6.766666666666667
204,204,0.2915438115596771,82.95226457107583,6.8
205,205,0.2916052341461181,82.94352550936993,6.833333333333333
206,206,0.2914209812879562,82.95226510113355,6.866666666666666
207,207,0.2910524681210518,82.92604844607361,6.9
208,208,0.2908067926764488,82.87361460589602,6.933333333333334
209,209,0.2906839549541473,82.80807190813073,6.966666666666667
210,210,0.2909910455346107,82.77748492713127,7.0
211,211,0.2910524606704712,82.77748439707355,7.033333333333333
212,212,0.2898240834474563,82.70757137336871,7.066666666666666
213,213,0.2882271930575371,82.53278960919326,7.1
214,214,0.2872444912791252,82.26624796213484,7.133333333333334
215,215,0.2857704311609268,81.89046777872397,7.166666666666667
216,216,0.28282231092453,81.39233967131526,7.2
217,217,0.278338722884655,80.6888428187316,7.233333333333333
218,218,0.2722582444548607,79.62267411026704,7.266666666666667
219,219,0.2661777585744858,78.22878979274515,7.3
220,220,0.2613870650529861,76.70381901957722,7.333333333333333
221,221,0.2564121261239052,75.14389199958575,7.366666666666666
222,222,0.2501781098544597,73.57304181503407,7.4
223,223,0.243483442813158,71.95849685201068,7.433333333333334
224,224,0.2380785681307315,70.30025711051559,7.466666666666667
225,225,0.2340863309800624,68.71192986266759,7.5
226,226,0.2309846729040146,67.34644842329084,7.533333333333333
227,227,0.2282822392880916,66.26498701941314,7.566666666666666
228,228,0.2252112887799739,65.34956831800501,7.6
229,229,0.2233072966337204,64.58271393062584,7.633333333333334
230,230,0.2237679362297058,64.06929259774624,7.666666666666667
231,231,0.2260404415428638,63.90980405904165,7.7
232,232,0.2293263562023639,64.20256289121772,7.733333333333333
233,233,0.23310362175107,64.8995042548921,7.766666666666667
234,234,0.2377100512385368,65.89139014377001,7.8
235,235,0.2433913126587867,67.12578565755845,7.833333333333333
236,236,0.2498403042554855,68.58521240781678,7.866666666666666
237,237,0.256350714713335,70.23908367857437,7.9
238,238,0.2621241062879562,71.97597630056676,7.933333333333334
239,239,0.2673447281122207,73.6800975736765,7.966666666666667
240,240,0.2717669010162353,75.24002459366798,8.0
241,241,0.274837851524353,76.55525762086576,8.033333333333333
242,242,0.2769875079393387,77.6126867375667,8.066666666666666
243,243,0.278645820915699,78.41668200468149,8.1
244,244,0.2797513753175735,78.9847226057373,8.133333333333333
245,245,0.2798127979040146,79.33865592997003,8.166666666666666
246,246,0.2785229906439781,79.44789499638021,8.2
247,247,0.2754520326852798,79.22067886196942,8.233333333333333
248,248,0.2698014825582504,78.51281221350396,8.266666666666667
249,249,0.2615713328123092,77.21505704468909,8.3
250,250,0.2529726698994636,75.39732690928737,8.333333333333334
251,251,0.2452031746506691,73.24532806117877,8.366666666666667
252,252,0.2366352267563343,70.88577636504091,8.4
253,253,0.2268388867378235,68.41480096958085,8.433333333333334
254,254,0.2161212638020515,65.79307609712208,8.466666666666667
255,255,0.2047280333936214,62.913547314166465,8.5
256,256,0.1936111897230148,59.85268207321269,8.533333333333333
257,257,0.1835998930037021,56.776524136845765,8.566666666666666
258,258,0.1744791679084301,53.813974532713104,8.6
259,259,0.1655119843780994,51.02402152978613,8.633333333333333
260,260,0.1585102155804634,48.52682788909296,8.666666666666666
