,frame,x,x (cm),time (s)
0,0,0.191035067041715,97.1470602968736,0.0
6,6,0.1916006803512573,97.1470602968736,0.2
7,7,0.1915299793084462,97.1470602968736,0.23333333333333334
8,8,0.1914239227771759,97.1470602968736,0.26666666666666666
9,9,0.1914946188529332,97.16835741110587,0.3
10,10,0.1917774230241775,97.17732423579453,0.3333333333333333
11,11,0.1918834795554479,97.1874116379529,0.36666666666666664
12,12,0.1920955826838811,97.21991688930828,0.4
13,13,0.1924490878979365,97.28829101436907,0.43333333333333335
14,14,0.19276724755764,97.38244629598675,0.4666666666666667
15,15,0.1929086546103159,97.49789900682683,0.5
16,16,0.1927319020032882,97.61223114019721,0.5333333333333333
17,17,0.1933682113885879,97.72544253860283,0.5666666666666667
18,18,0.1941812733809153,97.85210448903157,0.6
19,19,0.1949236392974853,98.01015127084109,0.6333333333333333
20,20,0.1946761806805928,98.20967075867496,0.6666666666666666
21,21,0.1942166239023208,98.40694814659898,0.7
22,22,0.1938277681668599,98.54818075403536,0.7333333333333333
23,23,0.192696546514829,98.55490579380431,0.7666666666666667
24,24,0.1925904949506124,98.43384893565512,0.8
25,25,0.192484438419342,98.23096661294662,0.8333333333333334
26,26,0.1932621548573176,98.02135877798393,0.8666666666666667
27,27,0.1931207577387491,97.89581834999534,0.9
28,28,0.1929793506860733,97.84874055169144,0.9333333333333333
30,30,0.1930853972832361,97.87564197072786,1.0
31,31,0.1933328608671824,97.92271976903177,1.0333333333333334
32,32,0.1935449639956156,97.96979740984061,1.0666666666666667
33,33,0.1931561082601547,98.0101498533854,1.1
34,34,0.1919895311196645,97.99669945885735,1.1333333333333333
35,35,0.1901159435510635,97.87900527808772,1.1666666666666667
36,36,0.1881009538968404,97.57524200401227,1.2
37,37,0.1844244798024495,96.98901209760842,1.2333333333333334
38,38,0.1805005570252736,96.07323807556239,1.2666666666666666
39,39,0.1772836446762085,94.85258004447611,1.3
40,40,0.1748444487651189,93.3842038347922,1.3333333333333333
41,41,0.1725820104281107,91.81718924613646,1.3666666666666667
42,42,0.1700721134742101,90.28380190376149,1.4
43,43,0.1691176493962606,88.89837346855245,1.4333333333333333
44,44,0.1696479022502899,87.76850977415016,1.4666666666666666
45,45,0.1719810465971628,86.99509114194126,1.5
46,46,0.1743141909440358,86.68684461301655,1.5333333333333334
47,47,0.1783795158068339,86.93119979924448,1.5666666666666667
48,48,0.1819499333699544,87.73039895802998,1.6
49,49,0.1862980673710505,89.00261678230878,1.6333333333333333
50,50,0.1887726187705993,90.59877410243544,1.6666666666666667
51,51,0.190363402167956,92.28124108694114,1.7
52,52,0.1910350620746612,93.86170670010524,1.7333333333333334
53,53,0.1906108558177948,95.12495864466587,1.7666666666666666
54,54,0.1899391909440358,95.9667531343814,1.8
55,55,0.1878535052140554,96.34897951062675,1.8333333333333333
56,56,0.1853789538145065,96.26379152618297,1.8666666666666667
57,57,0.1820913404226303,95.77171753137709,1.9
58,58,0.1803591549396515,94.9388906538256,1.9333333333333333
59,59,0.1771068970362345,93.8448945731681,1.9666666666666666
60,60,0.1742788404226303,92.57828026621809,2.0
61,61,0.1714861343304316,91.24553298914668,2.033333333333333
62,62,0.1721931497255961,89.95762172545949,2.066666666666667
63,63,0.1733243763446808,88.89052737882857,2.1
64,64,0.1767533918221791,88.25385778421662,2.1333333333333333
65,65,0.180217757821083,88.23031935754989,2.1666666666666665
66,66,0.1836821238199869,88.82999997347196,2.2
67,67,0.1856617629528045,89.94080975601739,2.2333333333333334
68,68,0.1876413971185684,91.31839288897794,2.2666666666666666
69,69,0.1898331393798192,92.72399817593967,2.3
70,70,0.1912118146816889,94.00406271992269,2.3333333333333335
72,72,0.191529964407285,95.07900268379225,2.4
75,75,0.1915299693743387,95.93200499564077,2.5
76,76,0.1916006654500961,96.53616792144163,2.533333333333333
77,77,0.1916713714599609,96.91615141030175,2.566666666666667
78,78,0.1917420774698257,97.11679194809055,2.6
79,79,0.1918127834796905,97.20310129747942,2.6333333333333333
81,81,0.1915299743413925,97.23112455394617,2.7
82,82,0.1911411186059316,97.22776297903215,2.7333333333333334
83,83,0.1907169123490651,97.18516985303319,2.7666666666666666
84,84,0.1902926961580912,97.08541042410641,2.8
85,85,0.190080593029658,96.94193555926512,2.8333333333333335
86,86,0.190151294072469,96.7838886199605,2.8666666666666667
87,87,0.1904694537321726,96.65050115727757,2.9
88,88,0.190999706586202,96.5877303920505,2.933333333333333
89,89,0.1914239178101221,96.61351060363694,2.966666666666667
92,92,0.1916713813940684,96.71887496734821,3.066666666666667
93,93,0.1904694586992263,96.8320858932686,3.1
94,94,0.1888433198134104,96.85450437244593,3.1333333333333333
95,95,0.1863687733809153,96.67404052891476,3.1666666666666665
96,96,0.18495474755764,96.23240716728742,3.2
97,97,0.1826216081778208,95.54193441961245,3.2333333333333334
98,98,0.180147056778272,94.6440956218945,3.2666666666666666
99,99,0.1777432113885879,93.6330462132463,3.3
100,100,0.1751272628704706,92.52335811063611,3.3333333333333335
101,101,0.1733950823545456,91.36995504459664,3.3666666666666667
102,102,0.1715214898188909,90.21879360598179,3.4
103,103,0.1714507838090261,89.14161106971713,3.433333333333333
104,104,0.1733950674533844,88.32111353673878,3.466666666666667
105,105,0.1765412787596384,87.89292962466905,3.5
106,106,0.1801470468441645,88.01174343793792,3.533333333333333
107,107,0.1830811550219853,88.69885240576781,3.566666666666667
108,108,0.185591051975886,89.82759536520533,3.6
109,109,0.1881363044182459,91.22423335499317,3.6333333333333333
111,111,0.1916360259056091,92.71166457899947,3.7
112,112,0.1924137423435847,94.12623779311542,3.7333333333333334
114,114,0.1908936599890391,95.32223619008495,3.8
115,115,0.1895149797201156,96.19429509120664,3.8333333333333335
116,116,0.1887372682491938,96.61014839874261,3.8666666666666667
117,117,0.1882423559824625,96.59781842418916,3.9
118,118,0.1882070104281107,96.33216549374866,3.933333333333333
119,119,0.1885958661635716,95.99365439592275,3.966666666666667
120,120,0.1893382320801417,95.76611228160243,4.0
121,121,0.1903633972009023,95.73809012760124,4.033333333333333
122,122,0.1914592683315277,95.8983785368354,4.066666666666666
123,123,0.1925197889407476,96.21222968555443,4.1
124,124,0.1932975053787231,96.6325659329495,4.133333333333334
125,125,0.1936510105927785,97.08989178901476,4.166666666666667
126,126,0.193686361114184,97.5147117637443,4.2
127,127,0.1935803095499674,97.84873913423573,4.233333333333333
128,128,0.1934742579857508,98.06283053903782,4.266666666666667
132,132,0.1934389074643453,98.16595311782937,4.4
133,133,0.1933682064215342,98.1883711245215,4.433333333333334
134,134,0.1933328559001287,98.16931595270404,4.466666666666667
144,144,0.192943995197614,98.12784277419445,4.8
145,145,0.1921662837266922,98.05274266439424,4.833333333333333
146,146,0.1909643610318502,97.91150958447264,4.866666666666666
147,147,0.189444288611412,97.65482426619619,4.9
148,148,0.1873585929473241,97.23785085367575,4.933333333333334
149,149,0.1848486910263697,96.62920388555025,4.966666666666667
150,150,0.182055984934171,95.81431160234652,5.0
151,151,0.1788744231065114,94.78756906928011,5.033333333333333
152,152,0.1750919024149576,93.54897660134114,5.066666666666666
153,153,0.1710265775521596,92.10413913331413,5.1
154,154,0.1674208094676335,90.47771661430593,5.133333333333334
155,155,0.1642745981613795,88.72351235487467,5.166666666666667
156,156,0.161411186059316,86.92447223955429,5.2
157,157,0.1587598870197931,85.17475139246737,5.233333333333333
158,158,0.1565327942371368,83.54384530361978,5.266666666666667
159,159,0.1548359642426172,82.07658998639573,5.3
160,160,0.1534926394621531,80.792041242593,5.333333333333333
161,161,0.1526442269484202,79.70252904676506,5.366666666666666
162,162,0.1520079125960668,78.81477875367099,5.4
163,163,0.1515130052963892,78.12094395859678,5.433333333333334
164,164,0.1511594951152801,77.6042108021594,5.466666666666667
165,165,0.1509473919868469,77.22758951819362,5.5
166,166,0.1508766859769821,76.95857406786865,5.533333333333333
167,167,0.1509120364983876,76.77586733695225,5.566666666666666
168,168,0.1509827425082524,76.66153536107693,5.6
169,169,0.1511241495609283,76.60661115805897,5.633333333333334
170,170,0.1513716081778208,76.60324879566957,5.666666666666667
171,171,0.1518311649560928,76.64808559652916,5.7
172,172,0.1527502834796905,76.75457195516583,5.733333333333333
173,173,0.1541996598243713,76.95297181050046,5.766666666666667
174,174,0.1569216648737589,77.311659602584,5.8
175,175,0.1627191752195358,77.9864401708112,5.833333333333333
176,176,0.1710265874862671,79.18467972272013,5.866666666666666
177,177,0.1802884638309478,81.11262357338899,5.9
178,178,0.1888433247804641,83.87675682149381,5.933333333333334
179,179,0.1961609125137329,87.35602245139034,5.966666666666667
180,180,0.2025593817234039,91.25562417118687,6.0
181,181,0.2083215415477752,95.21687481878014,6.033333333333333
182,182,0.2128110726674398,98.92592324545114,6.066666666666666
183,183,0.2158865829308827,102.20006335026378,6.1
184,184,0.2166289488474528,104.92048037497871,6.133333333333334
186,186,0.2164875417947769,107.0109531598408,6.2
187,187,0.2164168357849121,108.45578921041212,6.233333333333333
190,190,0.2165582478046417,109.29646186269736,6.333333333333333
191,191,0.2166289538145065,109.69101758351584,6.366666666666666
193,193,0.2164168457190195,109.82440457371355,6.433333333333334
194,194,0.2162754436333974,109.838976963167,6.466666666666667
195,195,0.21620474755764,109.82104347128475,6.5
196,196,0.2163461496432622,109.79414268222861,6.533333333333333
197,197,0.2164875517288843,109.7717254630119,6.566666666666666
201,201,0.2166996548573176,109.76724236565771,6.7
207,207,0.2159219433863957,109.76500089572816,6.9
208,208,0.2156391392151514,109.74930871628041,6.933333333333334
209,209,0.2152856290340423,109.69326409328782,6.966666666666667
211,211,0.2150735259056091,109.57220739263371,7.033333333333333
212,212,0.2148614227771759,109.4264909003678,7.066666666666666
213,213,0.2145786136388778,109.2695651685132,7.1
214,214,0.2143311550219853,109.12048552638251,7.133333333333334
215,215,0.2140837013721466,108.99158179103405,7.166666666666667
216,216,0.2128110776344935,108.8312927518196,7.2
217,217,0.2117152065038681,108.61383803965765,7.233333333333333
218,218,0.2117505570252736,108.34482227434253,7.266666666666667
219,219,0.2116091549396515,108.02872902571363,7.3
220,220,0.2113970518112182,107.73281215635222,7.333333333333333
221,221,0.2106193353732427,107.49294022497355,7.366666666666666
222,222,0.2116798609495163,107.33265213072956,7.4
223,223,0.2128110875686009,107.2889376397855,7.433333333333334
224,224,0.2133767008781433,107.35282961246257,7.466666666666667
225,225,0.2124222268660863,107.50863539682777,7.5
226,226,0.2118566135565439,107.67228727091685,7.533333333333333
227,227,0.2121040672063827,107.77541016469857,7.566666666666666
228,228,0.2126343250274658,107.79222323660619,7.6
229,229,0.2130585312843322,107.7720462273584,7.633333333333334
230,230,0.2127403765916824,107.77428706730765,7.666666666666667
231,231,0.2128817836443583,107.82360586305589,7.7
232,232,0.2127403815587361,107.89982670782085,7.733333333333333
236,236,0.2127050310373306,107.94466287870014,7.866666666666666
238,238,0.2125282734632492,107.95475138332404,7.933333333333334
239,239,0.2119273096323013,107.90991568492998,7.966666666666667
240,240,0.2105486343304316,107.79222134666529,8.0
241,241,0.2084982891877492,107.55234862781123,8.033333333333333
242,242,0.2060237427552541,107.11295594863806,8.066666666666666
243,243,0.2041501601537068,106.45723023723818,8.1
244,244,0.2027361343304316,105.6232819947416,8.133333333333333
245,245,0.2018877218166987,104.71311337996528,8.166666666666666
246,246,0.2013574590285619,103.86123180308152,8.2
247,247,0.2014988660812378,103.17188057784672,8.233333333333333
248,248,0.2021351754665374,102.71119251688714,8.266666666666667
249,249,0.2025947372118632,102.48252998259221,8.3
250,250,0.2027007887760798,102.44441995394742,8.333333333333334
251,251,0.2034785052140554,102.55314731002838,8.366666666666667
252,252,0.2045743763446808,102.75827189014183,8.4
253,253,0.2056702474753061,103.03849658005547,8.433333333333334
254,254,0.206271211306254,103.3893378099299,8.466666666666667
