,frame,x,x (cm),time (s)
0,0,0.14416502,32.53454912155852,0.0
1,1,0.14538573,32.53454912155852,0.03333333333333333
2,2,0.1479492,32.53454912155852,0.06666666666666667
4,4,0.14819334,32.53454912155852,0.13333333333333333
5,5,0.14807127,32.751536552823254,0.16666666666666666
6,6,0.14636229,32.805783271767474,0.2
7,7,0.14355467,32.561672481030634,0.23333333333333334
8,8,0.14074706,32.14804069359309,0.26666666666666666
9,9,0.13903807,31.646257432383344,0.3
10,10,0.13610838,31.076665217005495,0.3333333333333333
11,11,0.12036133,29.78830342012883,0.36666666666666664
12,12,0.10864258,28.004938646422623,0.4
13,13,0.095336914,25.577392640985387,0.43333333333333335
14,14,0.08544922,22.763337985387587,0.4666666666666667
15,15,0.084350586,20.7629850027337,0.5
16,16,0.08483887,19.44071789554124,0.5333333333333333
17,17,0.09411621,19.37290927466583,0.5666666666666667
18,18,0.09436035,19.86791169600754,0.6
19,19,0.11987305,21.841141319189315,0.6333333333333333
20,20,0.11633301,23.590602449043203,0.6666666666666666
21,21,0.12817383,25.482461771613508,0.7
22,22,0.13452147,27.71336308758523,0.7333333333333333
23,23,0.12731934,28.1269954305106,0.7666666666666667
24,24,0.12792969,28.771176884436763,0.8
25,25,0.13464354,29.13056139744226,0.8333333333333334
26,26,0.13391112,29.09665719810212,0.8666666666666667
27,27,0.13403319,29.469603390843677,0.9
30,30,0.13635252,29.937481341737623,1.0
31,31,0.13574217,29.99850890054988,1.0333333333333334
32,32,0.13830565,30.242619691286723,1.0666666666666667
33,33,0.13854979,30.493511321891592,1.1
34,34,0.14086913,30.744403507984288,1.1333333333333333
35,35,0.14160155,31.069884932625293,1.1666666666666667
36,36,0.14208983,31.280091524021994,1.2
37,42,0.15380858,32.12769872947682,1.4
38,45,0.154541,32.88715446115946,1.5
39,46,0.15527342,33.646610192842104,1.5333333333333334
40,47,0.15747069,34.50099823816496,1.5666666666666667
41,48,0.1533203,34.47387487869285,1.6
42,49,0.15344237,34.4128473198806,1.6333333333333333
46,53,0.14379881,33.77544670582246,1.7666666666666666
47,60,0.1397705,32.79222270300706,2.0
48,61,0.1368408,31.87680654338413,2.033333333333333
50,67,0.147583,31.55132567423095,2.2333333333333334
51,68,0.14782713,31.775093945363707,2.2666666666666666
52,69,0.14733885,32.19550657266928,2.3
53,70,0.1467285,32.74475626844304,2.3333333333333335
54,71,0.14770506,32.75153655282325,2.3666666666666667
55,72,0.14709471,32.71085151361508,2.4
56,73,0.14685057,32.68372815414297,2.433333333333333
57,74,0.14660643,32.67694731427494,2.466666666666667
58,75,0.14624022,32.5955772358586,2.5
60,77,0.14611815,32.54133051691437,2.566666666666667
61,78,0.14648436,32.520987997310286,2.6
63,81,0.14453124,32.40571371955381,2.7
64,83,0.13623045,31.849683183912013,2.7666666666666666
65,85,0.138916,31.4496125207227,2.8333333333333335
66,86,0.14404295,31.31399516787431,2.8666666666666667
67,87,0.13256836,30.64947174983189,2.9
68,88,0.13208008,30.418923749806755,2.933333333333333
69,89,0.12524414,29.65946857361194,2.966666666666667
70,91,0.103515625,27.408225015780044,3.033333333333333
71,92,0.087890625,24.92643123597172,3.066666666666667
72,93,0.08227539,22.15984134847447,3.1
73,94,0.08300781,19.81366464377062,3.1333333333333333
74,95,0.08032226,18.52530145817439,3.1666666666666665
75,96,0.071044914,17.589542723398587,3.2
76,97,0.08886719,17.95570918724776,3.2333333333333334
77,98,0.078735344,17.718378903086254,3.2666666666666666
78,99,0.077575676,17.565809506116572,3.3
79,100,0.07360839,17.70820747663786,3.3333333333333335
80,101,0.07232665,16.789400619337,3.3666666666666667
81,107,0.07415771,16.535118624346897,3.566666666666667
82,108,0.07312011,16.287617358127257,3.6
83,109,0.07434081,16.328302397335428,3.6333333333333333
84,110,0.08642578,17.1114919017879,3.6666666666666665
85,111,0.1217041,19.752635973982716,3.7
86,112,0.14904784,23.97032892616496,3.7333333333333334
87,113,0.1743164,29.523851220763547,3.7666666666666666
88,114,0.18432617,34.962098682117826,3.8
89,115,0.18823242,38.65766585348625,3.8333333333333335
90,116,0.18896484,40.87500660069756,3.8666666666666667
91,117,0.19104004,41.80398444005655,3.9
92,118,0.18554688,41.87179339422467,3.933333333333333
93,119,0.19140625,42.04809578628122,3.966666666666667
94,120,0.2052002,42.9499502661681,4.0
95,121,0.20166016,43.53988500115004,4.033333333333333
96,122,0.20483398,44.6112599222498,4.066666666666666
97,123,0.20581055,45.41140124862844,4.1
98,124,0.20874023,45.608045604801255,4.133333333333334
99,125,0.21704102,46.46243365012412,4.166666666666667
100,126,0.21728516,47.15408153861429,4.2
101,127,0.21948242,47.913537270296935,4.233333333333333
102,128,0.2220459,48.65265103786331,4.266666666666667
103,129,0.22802734,49.2629277369615,4.3
105,131,0.23034668,49.98847926930401,4.366666666666666
106,132,0.23327637,50.75471639634249,4.4
107,133,0.23730469,51.60232360179733,4.433333333333334
108,134,0.23925781,52.2261625361194,4.466666666666667
109,135,0.2368164,52.58554760461272,4.5
110,136,0.2446289,53.21616682331501,4.533333333333333
111,137,0.24731445,53.772196803468965,4.566666666666666
112,138,0.24707031,54.206171665998426,4.6
114,140,0.24719238,54.78254472124429,4.666666666666667
115,141,0.24926758,55.04021774720502,4.7
116,142,0.24804688,55.08090334190101,4.733333333333333
117,143,0.24963379,55.223301534617434,4.766666666666667
118,144,0.23840332,54.73507995314375,4.8
119,145,0.24584961,54.54521588135113,4.833333333333333
120,146,0.24609375,54.436721887974855,4.866666666666666
121,147,0.24572754,54.21973445671013,4.9
124,150,0.24304199,54.477406927183026,5.0
125,151,0.24633789,54.50453028665514,5.033333333333333
126,152,0.24865723,54.64692847937157,5.066666666666666
127,153,0.24975586,54.87069675050432,5.1
128,154,0.2536621,55.46063092999843,5.133333333333334
129,155,0.2565918,56.03022314537627,5.166666666666667
