,frame,x,x (cm),time (s)
0,0,0.1204305003086725,28.169081428662455,0.0
5,5,0.1240152964989344,28.169081428662455,0.16666666666666666
6,6,0.1288126567999521,28.169081428662455,0.2
7,7,0.1346435457468033,28.169081428662455,0.23333333333333334
8,8,0.1406778852144877,29.292034744172927,0.26666666666666666
9,9,0.1464192579189936,30.53459534517175,0.3
10,10,0.1522298057874043,31.83334899743771,0.3333333333333333
11,11,0.1576497306426366,33.10930990430045,0.36666666666666664
12,12,0.1628906190395355,34.34126470791685,0.4
13,13,0.1674479136864344,35.507548592212146,0.43333333333333335
14,14,0.1712158193190892,36.5605441737605,0.4666666666666667
15,15,0.1738606770833333,37.45962996374391,0.5
16,16,0.17626953125,38.20164647079167,0.5333333333333333
17,17,0.1790445963541666,38.84481759196262,0.5666666666666667
18,18,0.1829833984375,39.4974669117647,0.6
19,19,0.1877115885416666,40.265661274509796,0.6333333333333333
20,20,0.1933268229166666,41.211686764705874,0.6666666666666666
21,21,0.198681640625,42.30078958333332,0.7
22,22,0.2031656901041666,43.42013272058822,0.7333333333333333
23,23,0.2060302734375,44.436117156862736,0.7666666666666667
24,24,0.2079427083333333,45.24673823529411,0.8
25,25,0.2090413411458333,45.821304289215675,0.8333333333333334
26,26,0.210009765625,46.200887990196065,0.8666666666666667
27,27,0.2107747395833333,46.46402389705881,0.9
28,28,0.2117106119791666,46.67299803921567,0.9333333333333333
29,29,0.2127360026041666,46.87791004901959,0.9666666666666667
30,30,0.2138997395833333,47.09365441176469,1.0
31,31,0.21494140625,47.32474460784312,1.0333333333333334
32,32,0.2155192057291666,47.535975490196066,1.0666666666666667
33,33,0.2157389322916666,47.70252291666665,1.1
34,34,0.2154459635416667,47.78827904411763,1.1333333333333333
35,35,0.2150797526041667,47.79595196078431,1.1666666666666667
36,36,0.2144205729166667,47.7350199754902,1.2
37,37,0.2141764322916667,47.648361151960785,1.2333333333333334
38,38,0.2140055338541667,47.56847254901962,1.2666666666666666
39,39,0.2143880208333333,47.53010796568627,1.3
40,40,0.214697265625,47.545453799019604,1.3333333333333333
41,41,0.215478515625,47.617669485294115,1.3666666666666667
42,42,0.2162434895833333,47.74179019607842,1.4
43,43,0.2168050130208333,47.875840563725475,1.4333333333333333
45,45,0.2167317708333333,47.9886775735294,1.5
46,46,0.2167073567708333,48.05683112745096,1.5333333333333334
47,47,0.2169108072916666,48.09384166666665,1.5666666666666667
48,48,0.217236328125,48.11776311274508,1.6
49,49,0.2177001953125,48.17147352941175,1.6333333333333333
50,50,0.21806640625,48.246848651960775,1.6666666666666667
51,51,0.2177164713541667,48.29153210784314,1.7
52,52,0.2164713541666666,48.249105392156864,1.7333333333333334
53,53,0.2138509114583333,48.03561776960784,1.7666666666666666
54,54,0.21025390625,47.60232365196077,1.8
55,55,0.2051025390625,46.902734191176464,1.8333333333333333
56,56,0.1972086578607559,45.83439332725674,1.8666666666666667
57,57,0.1866129527489344,44.323731274713246,1.9
58,58,0.1744466086228688,42.33779957158705,1.9333333333333333
59,59,0.162255851427714,39.961451704346885,1.9666666666666666
60,60,0.1506754467884699,37.38064317534202,2.0
61,61,0.1421305249134699,34.9135744624119,2.033333333333333
62,62,0.1373209546009699,32.854524542221355,2.066666666666667
63,63,0.1366048087676366,31.431875467517315,2.1
64,64,0.1373535056908925,30.693018672225044,2.1333333333333333
65,65,0.1400471885999044,30.57747340889724,2.1666666666666665
66,66,0.1441161980231603,30.95434880125756,2.2
67,67,0.1507405479749043,31.738340180086613,2.2333333333333334
68,68,0.1595296134551366,32.96826364204556,2.2666666666666666
69,69,0.1699625591437022,34.6274193647796,2.3
70,70,0.1804036428531011,36.6399808226043,2.3333333333333335
71,71,0.1893636057774225,38.78207922278011,2.3666666666666667
72,72,0.1952718098958333,40.764400306881164,2.4
73,73,0.1975504557291666,42.29447049039951,2.433333333333333
74,74,0.1975748697916666,43.246815018433196,2.466666666666667
75,75,0.1965576171875,43.645806740196065,2.5
76,76,0.1955647786458333,43.66205526960783,2.533333333333333
77,77,0.1946533203125,43.50137536764705,2.566666666666667
78,78,0.1943440755208333,43.32219019607842,2.6
79,79,0.1947591145833333,43.22244227941176,2.6333333333333333
80,80,0.1954752604166666,43.21747745098038,2.6666666666666665
81,81,0.1964925130208333,43.31948210784312,2.7
82,82,0.1977213541666666,43.50679154411763,2.7333333333333334
83,83,0.1989583333333333,43.73968713235293,2.7666666666666666
84,84,0.2001139322916666,43.99695551470587,2.8
85,85,0.20107421875,44.2510644607843,2.8333333333333335
86,86,0.2019124348958333,44.48350870098038,2.8666666666666667
87,87,0.2025390625,44.68210183823528,2.9
88,88,0.2030029296875,44.84233039215685,2.933333333333333
89,89,0.2031819661458333,44.95922953431372,2.966666666666667
90,90,0.2030517578125,45.02241825980391,3.0
91,91,0.2025472005208333,45.022869607843134,3.033333333333333
92,92,0.2017903645833333,44.95561874999999,3.066666666666667
93,93,0.2009195963541666,44.83014399509803,3.1
94,94,0.2012288411458333,44.72904203431371,3.1333333333333333
95,95,0.2027669270833333,44.741228431372534,3.1666666666666665
96,96,0.2054361979166667,44.94343235294117,3.2
97,97,0.2077718098958333,45.32346740196078,3.2333333333333334
98,98,0.2093343098958333,45.773010049019604,3.2666666666666666
99,99,0.2095865885416666,46.15123970588234,3.3
100,100,0.2082356770833333,46.30650343137253,3.3333333333333335
101,101,0.2053059895833333,46.16974497549018,3.3666666666666667
102,102,0.20087890625,45.700794362745086,3.4
103,103,0.1961100260416666,44.95336200980391,3.433333333333333
104,104,0.1907307942708333,43.98251237745097,3.466666666666667
105,105,0.1846516917149225,42.83699099882536,3.5
106,106,0.1778727183739344,41.561029926674024,3.533333333333333
107,107,0.1719075461228688,40.218720527469394,3.566666666666667
108,108,0.1671305249134699,38.90981071787814,3.6
109,109,0.1633951713641484,37.73088908848481,3.6333333333333333
110,110,0.1618489474058151,36.84218435849955,3.6666666666666665
111,111,0.1628417879343033,36.339382477524694,3.7
112,112,0.1662516216437021,36.290637054577985,3.7333333333333334
113,113,0.1710449188947677,36.71490465221029,3.7666666666666666
114,114,0.1764567047357559,37.52507493356441,3.8
115,115,0.1818196614583333,38.57761905688116,3.8333333333333335
116,116,0.1866129557291666,39.70689218157598,3.8666666666666667
117,117,0.1911865234375,40.8239787439234,3.9
118,118,0.1950520833333333,41.85530906862744,3.933333333333333
119,119,0.1982666015625,42.76748345588234,3.966666666666667
120,120,0.2008951822916667,43.559599264705874,4.0
121,121,0.2032307942708333,44.22759436274509,4.033333333333333
122,122,0.2047037760416667,44.76289313725489,4.066666666666666
123,123,0.2054036458333333,45.15872536764705,4.1
124,124,0.2060709635416667,45.44578272058823,4.133333333333334
125,125,0.2069580078125,45.652500122549014,4.166666666666667
126,126,0.2072428385416667,45.79332071078431,4.2
127,127,0.2068115234375,45.87140392156863,4.233333333333333
128,128,0.2054931640625,45.83935821078431,4.266666666666667
129,129,0.2039306640625,45.67145674019608,4.3
130,130,0.2019449869791666,45.37762916666666,4.333333333333333
131,131,0.2005289713541666,45.02918848039214,4.366666666666666
132,132,0.1997477213541666,44.710536764705864,4.4
133,133,0.1999348958333333,44.48892487745096,4.433333333333334
134,134,0.1999104817708333,44.376087867647044,4.466666666666667
136,136,0.1996175130208333,44.325536887254884,4.533333333333333
137,137,0.1994140625,44.30703161764704,4.566666666666666
138,138,0.199169921875,44.26460490196078,4.6
139,139,0.2001546223958333,44.27814534313724,4.633333333333334
140,140,0.2021565755208333,44.41896593137254,4.666666666666667
141,141,0.2047770182291667,44.71640428921568,4.7
142,142,0.2063232421875,45.11313921568627,4.733333333333333
143,143,0.2067138671875,45.47692573529411,4.766666666666667
144,144,0.2054524739583333,45.659721691176465,4.8
146,146,0.1992757161458333,45.35461041666666,4.866666666666666
147,147,0.1959309895833333,44.77823897058823,4.9
148,148,0.1925944010416666,43.995150122549006,4.933333333333334
149,149,0.1905843098958333,43.170537254901944,4.966666666666667
150,150,0.1888997395833333,42.595068504901946,5.0
151,151,0.189697265625,42.24933590686273,5.033333333333333
152,152,0.1920817057291666,42.220900980392145,5.066666666666666
153,153,0.195654296875,42.502090808823525,5.1
154,154,0.199609375,43.096064828431366,5.133333333333334
155,155,0.2039225260416666,43.88502120098038,5.166666666666667
156,156,0.2069986979166667,44.71234215686274,5.2
157,157,0.2079915364583333,45.39658578431372,5.233333333333333
158,158,0.208740234375,45.90299828431372,5.266666666666667
159,159,0.2091227213541666,46.19140968137254,5.3
160,161,0.2090250651041666,46.30379534313724,5.366666666666666
161,162,0.2080729166666666,46.308308823529394,5.4
162,163,0.2081461588541666,46.27536041666664,5.433333333333334
163,164,0.2085856119791666,46.245571446078415,5.466666666666667
164,165,0.208251953125,46.202693382352926,5.5
165,166,0.2071695963541666,46.15259374999999,5.533333333333333
167,168,0.2045084635416666,45.950841176470576,5.6
168,169,0.2017985026041667,45.57441691176469,5.633333333333334
169,170,0.1988444010416666,45.05265857843136,5.666666666666667
170,171,0.1974039713541666,44.511040931372534,5.7
171,172,0.1977945963541666,44.138678799019594,5.733333333333333
172,173,0.1990315755208333,43.985220465686254,5.766666666666667
173,174,0.200439453125,44.073684681372534,5.8
174,175,0.2021158854166667,44.33501519607842,5.833333333333333
175,176,0.2026448567708333,44.60401862745097,5.866666666666666
176,177,0.2023518880208333,44.78816862745097,5.9
177,178,0.2010009765625,44.819311642156855,5.933333333333334
178,179,0.2008463541666666,44.748901348039205,5.966666666666667
179,180,0.2017333984375,44.69835036764705,6.0
181,182,0.2058756510416666,44.89378406862744,6.066666666666666
182,183,0.2062255859375,45.18354950980391,6.1
183,184,0.2042561848958333,45.37266433823528,6.133333333333334
184,185,0.1993733723958333,45.241773406862734,6.166666666666667
185,186,0.1912434885899225,44.43024957725673,6.2
186,187,0.1806640595197677,43.012565220791664,6.233333333333333
187,188,0.1698893169562021,41.10652212060664,6.266666666666667
188,189,0.1600260327259699,38.92425385513303,6.3
189,190,0.151855456829071,36.73972873927096,6.333333333333333
190,191,0.1446695834398269,34.74341581085802,6.366666666666666
191,192,0.1389322797457376,33.026487539104366,6.4
192,193,0.1342691967884699,31.59797099498672,6.433333333333334
193,194,0.1305175721645355,30.41453676674037,6.466666666666667
194,195,0.126888017853101,29.428341852016054,6.5
195,196,0.1244954417149225,28.627651036505586,6.533333333333333
196,197,0.1232747395833333,28.017880331390963,6.566666666666666
197,198,0.123291015625,27.61708360314461,6.6
198,199,0.1233235677083333,27.41939332725673,6.633333333333334
199,200,0.1233479817708333,27.355753308823523,6.666666666666667
200,201,0.1234781901041666,27.36703700980391,6.7
201,202,0.1246500641107559,27.442412077256733,6.733333333333333
202,203,0.1274007131656011,27.668537279615204,6.766666666666667
203,204,0.1346516877412796,28.29545943060481,6.8
204,205,0.1476318299770355,29.635060080419798,6.833333333333333
205,207,0.1645426372687022,31.84756789317411,6.9
206,209,0.1819091747204462,34.870696949648384,6.966666666666667
207,210,0.1965169241031011,38.30184485395842,7.0
208,211,0.2071777333815892,41.604358732380575,7.033333333333333
209,212,0.21220703125,44.24790452864403,7.066666666666666
210,213,0.2138346354166666,46.018543161968154,7.1
211,214,0.2140625,46.991649699805755,7.133333333333334
212,215,0.2154296875,47.44931666666666,7.166666666666667
213,216,0.2166015625,47.693044607843134,7.2
214,218,0.2172932942708333,47.884867524509794,7.266666666666667
215,219,0.21708984375,48.052768995098035,7.3
216,220,0.2162516276041666,48.09835514705881,7.333333333333333
217,221,0.2157145182291666,48.0491582107843,7.366666666666666
218,222,0.2151285807291666,47.92909963235292,7.4
219,223,0.2149088541666666,47.80813835784311,7.433333333333334
220,224,0.2145670572916666,47.71470931372547,7.466666666666667
221,225,0.2145751953125,47.65152058823527,7.5
222,226,0.2142578125,47.60322634803921,7.533333333333333
223,227,0.2132975260416666,47.5138594362745,7.566666666666666
224,228,0.2118326822916666,47.36220649509803,7.6
